fit_result: [52947.59993084777, 0.34164745444729944, 13889.48826436996, 0.02755668392558975, 8.464130685142415]
fit_guess: [52947.6, 0.5, 13889.49, 0.2, 10.0]
se: [1.000003707439197, 0.009557970236500698, 1.0025408251482557, 0.0009537883538592608, 61.61124714587391]

cctaus (ns), correlation
0.000000000000000000e+00 5.914500000000000000e+04
1.646100000000000063e-01 5.752800000000000000e+04
3.292200000000000126e-01 5.227100000000000000e+04
4.938299999999999912e-01 4.974700000000000000e+04
6.584400000000000253e-01 4.604700000000000000e+04
8.230500000000000593e-01 4.405000000000000000e+04
9.876599999999999824e-01 4.128100000000000000e+04
1.152270000000000127e+00 3.950400000000000000e+04
1.316880000000000051e+00 3.725200000000000000e+04
1.481489999999999974e+00 3.615800000000000000e+04
1.646100000000000119e+00 3.471200000000000000e+04
1.810710000000000042e+00 3.339100000000000000e+04
1.975319999999999965e+00 3.231900000000000000e+04
2.139930000000000110e+00 3.103600000000000000e+04
2.304540000000000255e+00 3.040500000000000000e+04
2.469149999999999956e+00 2.968300000000000000e+04
2.633760000000000101e+00 2.875200000000000000e+04
2.798370000000000246e+00 2.792800000000000000e+04
2.962979999999999947e+00 2.711000000000000000e+04
3.127590000000000092e+00 2.667500000000000000e+04
3.292200000000000237e+00 2.600800000000000000e+04
3.456809999999999938e+00 2.540100000000000000e+04
3.621420000000000083e+00 2.498700000000000000e+04
3.786030000000000229e+00 2.443600000000000000e+04
3.950639999999999930e+00 2.407500000000000000e+04
4.115250000000000519e+00 2.338500000000000000e+04
4.279860000000000220e+00 2.284000000000000000e+04
4.444469999999999921e+00 2.284600000000000000e+04
4.609080000000000510e+00 2.265300000000000000e+04
4.773690000000000211e+00 2.190300000000000000e+04
4.938299999999999912e+00 2.152600000000000000e+04
5.102910000000000501e+00 2.137800000000000000e+04
5.267520000000000202e+00 2.112300000000000000e+04
5.432129999999999903e+00 2.076200000000000000e+04
5.596740000000000492e+00 2.067600000000000000e+04
5.761350000000000193e+00 2.001300000000000000e+04
5.925959999999999894e+00 2.013400000000000000e+04
6.090570000000000483e+00 1.950300000000000000e+04
6.255180000000000184e+00 1.932200000000000000e+04
6.419789999999999885e+00 1.919200000000000000e+04
6.584400000000000475e+00 1.898000000000000000e+04
6.749010000000000176e+00 1.860400000000000000e+04
6.913619999999999877e+00 1.840300000000000000e+04
7.078230000000000466e+00 1.814900000000000000e+04
7.242840000000000167e+00 1.806600000000000000e+04
7.407449999999999868e+00 1.763900000000000000e+04
7.572060000000000457e+00 1.770000000000000000e+04
7.736670000000000158e+00 1.753600000000000000e+04
7.901279999999999859e+00 1.679800000000000000e+04
8.065889999999999560e+00 1.724300000000000000e+04
8.230500000000001037e+00 1.668400000000000000e+04
8.395110000000000738e+00 1.654400000000000000e+04
8.559720000000000439e+00 1.645000000000000000e+04
8.724330000000000140e+00 1.628300000000000000e+04
8.888939999999999841e+00 1.591100000000000000e+04
9.053549999999999542e+00 1.626300000000000000e+04
9.218160000000001020e+00 1.564200000000000000e+04
9.382770000000000721e+00 1.552900000000000000e+04
9.547380000000000422e+00 1.519500000000000000e+04
9.711990000000000123e+00 1.524600000000000000e+04
9.876599999999999824e+00 1.512300000000000000e+04
1.004120999999999952e+01 1.505400000000000000e+04
1.020582000000000100e+01 1.485400000000000000e+04
1.037043000000000070e+01 1.462400000000000000e+04
1.053504000000000040e+01 1.452100000000000000e+04
1.069965000000000011e+01 1.443400000000000000e+04
1.086425999999999981e+01 1.457100000000000000e+04
1.102887000000000128e+01 1.406800000000000000e+04
1.119348000000000098e+01 1.381900000000000000e+04
1.135809000000000069e+01 1.395400000000000000e+04
1.152270000000000039e+01 1.361100000000000000e+04
1.168731000000000009e+01 1.367900000000000000e+04
1.185191999999999979e+01 1.341000000000000000e+04
1.201653000000000127e+01 1.336500000000000000e+04
1.218114000000000097e+01 1.306200000000000000e+04
1.234575000000000067e+01 1.302900000000000000e+04
1.251036000000000037e+01 1.304800000000000000e+04
1.267497000000000007e+01 1.284800000000000000e+04
1.283957999999999977e+01 1.276700000000000000e+04
1.300419000000000125e+01 1.261700000000000000e+04
1.316880000000000095e+01 1.249600000000000000e+04
1.333341000000000065e+01 1.261300000000000000e+04
1.349802000000000035e+01 1.247400000000000000e+04
1.366263000000000005e+01 1.213200000000000000e+04
1.382723999999999975e+01 1.196500000000000000e+04
1.399185000000000123e+01 1.205000000000000000e+04
1.415646000000000093e+01 1.177800000000000000e+04
1.432107000000000063e+01 1.177100000000000000e+04
1.448568000000000033e+01 1.173300000000000000e+04
1.465029000000000003e+01 1.155600000000000000e+04
1.481489999999999974e+01 1.140700000000000000e+04
1.497951000000000121e+01 1.134600000000000000e+04
1.514412000000000091e+01 1.128700000000000000e+04
1.530873000000000062e+01 1.135800000000000000e+04
1.547334000000000032e+01 1.110000000000000000e+04
1.563795000000000002e+01 1.107100000000000000e+04
1.580255999999999972e+01 1.089600000000000000e+04
1.596717000000000120e+01 1.069000000000000000e+04
1.613177999999999912e+01 1.096400000000000000e+04
1.629639000000000237e+01 1.065000000000000000e+04
1.646100000000000207e+01 1.053500000000000000e+04
1.662561000000000178e+01 1.059300000000000000e+04
1.679022000000000148e+01 1.047900000000000000e+04
1.695483000000000118e+01 1.011600000000000000e+04
1.711944000000000088e+01 1.037600000000000000e+04
1.728405000000000058e+01 1.056500000000000000e+04
1.744866000000000028e+01 9.963000000000000000e+03
1.761326999999999998e+01 9.906000000000000000e+03
1.777787999999999968e+01 1.005900000000000000e+04
1.794248999999999938e+01 9.995000000000000000e+03
1.810709999999999908e+01 9.482000000000000000e+03
1.827171000000000234e+01 9.617000000000000000e+03
1.843632000000000204e+01 9.882000000000000000e+03
1.860093000000000174e+01 9.620000000000000000e+03
1.876554000000000144e+01 9.678000000000000000e+03
1.893015000000000114e+01 9.522000000000000000e+03
1.909476000000000084e+01 9.504000000000000000e+03
1.925937000000000054e+01 9.595000000000000000e+03
1.942398000000000025e+01 9.570000000000000000e+03
1.958858999999999995e+01 9.377000000000000000e+03
1.975319999999999965e+01 9.521000000000000000e+03
1.991780999999999935e+01 9.220000000000000000e+03
2.008241999999999905e+01 9.146000000000000000e+03
2.024703000000000230e+01 9.140000000000000000e+03
2.041164000000000200e+01 8.980000000000000000e+03
2.057625000000000171e+01 9.201000000000000000e+03
2.074086000000000141e+01 9.268000000000000000e+03
2.090547000000000111e+01 9.233000000000000000e+03
2.107008000000000081e+01 9.177000000000000000e+03
2.123469000000000051e+01 8.926000000000000000e+03
2.139930000000000021e+01 8.856000000000000000e+03
2.156390999999999991e+01 8.573000000000000000e+03
2.172851999999999961e+01 8.234000000000000000e+03
2.189312999999999931e+01 8.099000000000000000e+03
2.205774000000000257e+01 7.865000000000000000e+03
2.222235000000000227e+01 7.610000000000000000e+03
2.238696000000000197e+01 7.541000000000000000e+03
2.255157000000000167e+01 7.339000000000000000e+03
2.271618000000000137e+01 7.390000000000000000e+03
2.288079000000000107e+01 6.911000000000000000e+03
2.304540000000000077e+01 6.897000000000000000e+03
2.321001000000000047e+01 7.094000000000000000e+03
2.337462000000000018e+01 7.366000000000000000e+03
2.353922999999999988e+01 7.636000000000000000e+03
2.370383999999999958e+01 7.755000000000000000e+03
2.386844999999999928e+01 7.663000000000000000e+03
2.403306000000000253e+01 7.524000000000000000e+03
2.419767000000000223e+01 7.725000000000000000e+03
2.436228000000000193e+01 7.589000000000000000e+03
2.452689000000000163e+01 7.374000000000000000e+03
2.469150000000000134e+01 7.399000000000000000e+03
2.485611000000000104e+01 7.357000000000000000e+03
2.502072000000000074e+01 7.319000000000000000e+03
2.518533000000000044e+01 7.191000000000000000e+03
2.534994000000000014e+01 7.221000000000000000e+03
2.551454999999999984e+01 7.143000000000000000e+03
2.567915999999999954e+01 7.181000000000000000e+03
2.584376999999999924e+01 7.208000000000000000e+03
2.600838000000000250e+01 7.184000000000000000e+03
2.617299000000000220e+01 6.914000000000000000e+03
2.633760000000000190e+01 7.204000000000000000e+03
2.650221000000000160e+01 6.982000000000000000e+03
3.292200000000000415e+01 5.607000000000000000e+03
3.308661000000000030e+01 5.174000000000000000e+03
3.325122000000000355e+01 5.192000000000000000e+03
3.341582999999999970e+01 5.575000000000000000e+03
3.358044000000000295e+01 5.079000000000000000e+03
3.374504999999999910e+01 4.840000000000000000e+03
3.390966000000000236e+01 5.290000000000000000e+03
3.407426999999999850e+01 5.158000000000000000e+03
3.423888000000000176e+01 4.967000000000000000e+03
3.440348999999999791e+01 5.093000000000000000e+03
3.456810000000000116e+01 5.110000000000000000e+03
3.473271000000000441e+01 5.002000000000000000e+03
3.489732000000000056e+01 4.920000000000000000e+03
3.506193000000000382e+01 4.955000000000000000e+03
3.522653999999999996e+01 4.977000000000000000e+03
3.539115000000000322e+01 4.888000000000000000e+03
3.555575999999999937e+01 4.880000000000000000e+03
3.572037000000000262e+01 4.712000000000000000e+03
3.588497999999999877e+01 4.755000000000000000e+03
3.604959000000000202e+01 4.827000000000000000e+03
3.621419999999999817e+01 4.816000000000000000e+03
3.637881000000000142e+01 4.717000000000000000e+03
3.654342000000000468e+01 4.652000000000000000e+03
3.670803000000000083e+01 4.798000000000000000e+03
3.687264000000000408e+01 4.587000000000000000e+03
3.703725000000000023e+01 4.470000000000000000e+03
3.720186000000000348e+01 4.623000000000000000e+03
3.736646999999999963e+01 4.644000000000000000e+03
3.753108000000000288e+01 4.503000000000000000e+03
3.769568999999999903e+01 4.572000000000000000e+03
3.786030000000000229e+01 4.613000000000000000e+03
3.802490999999999843e+01 4.511000000000000000e+03
3.818952000000000169e+01 4.656000000000000000e+03
3.835413000000000494e+01 4.427000000000000000e+03
3.851874000000000109e+01 4.482000000000000000e+03
3.868335000000000434e+01 4.398000000000000000e+03
3.884796000000000049e+01 4.528000000000000000e+03
3.901257000000000374e+01 4.349000000000000000e+03
3.917717999999999989e+01 4.475000000000000000e+03
3.934179000000000315e+01 4.265000000000000000e+03
3.950639999999999930e+01 4.495000000000000000e+03
3.967101000000000255e+01 4.303000000000000000e+03
3.983561999999999870e+01 4.305000000000000000e+03
4.000023000000000195e+01 4.296000000000000000e+03
4.016483999999999810e+01 4.266000000000000000e+03
4.032945000000000135e+01 3.907000000000000000e+03
4.049406000000000461e+01 4.568000000000000000e+03
4.065867000000000075e+01 4.454000000000000000e+03
4.082328000000000401e+01 3.846000000000000000e+03
4.098789000000000016e+01 4.203000000000000000e+03
4.115250000000000341e+01 4.593000000000000000e+03
4.131710999999999956e+01 3.942000000000000000e+03
4.148172000000000281e+01 4.018000000000000000e+03
4.164632999999999896e+01 4.491000000000000000e+03
4.181094000000000221e+01 3.958000000000000000e+03
4.197554999999999836e+01 3.853000000000000000e+03
4.214016000000000162e+01 4.064000000000000000e+03
4.230477000000000487e+01 3.985000000000000000e+03
4.246938000000000102e+01 3.885000000000000000e+03
4.263399000000000427e+01 4.142000000000000000e+03
4.279860000000000042e+01 3.938000000000000000e+03
4.296321000000000367e+01 3.846000000000000000e+03
4.312781999999999982e+01 3.909000000000000000e+03
4.329243000000000308e+01 3.955000000000000000e+03
4.345703999999999922e+01 3.938000000000000000e+03
4.362165000000000248e+01 3.815000000000000000e+03
4.378625999999999863e+01 3.862000000000000000e+03
4.395087000000000188e+01 3.943000000000000000e+03
4.411548000000000513e+01 3.705000000000000000e+03
4.428009000000000128e+01 3.744000000000000000e+03
4.444470000000000454e+01 3.718000000000000000e+03
4.460931000000000068e+01 3.678000000000000000e+03
4.477392000000000394e+01 3.592000000000000000e+03
4.493853000000000009e+01 3.728000000000000000e+03
4.510314000000000334e+01 3.698000000000000000e+03
4.526774999999999949e+01 3.556000000000000000e+03
4.543236000000000274e+01 3.727000000000000000e+03
4.559696999999999889e+01 3.615000000000000000e+03
4.576158000000000214e+01 3.620000000000000000e+03
4.592618999999999829e+01 3.621000000000000000e+03
4.609080000000000155e+01 3.685000000000000000e+03
4.625541000000000480e+01 3.459000000000000000e+03
4.642002000000000095e+01 3.486000000000000000e+03
4.658463000000000420e+01 3.552000000000000000e+03
4.674924000000000035e+01 3.554000000000000000e+03
4.691385000000000360e+01 3.520000000000000000e+03
4.707845999999999975e+01 3.464000000000000000e+03
4.724307000000000301e+01 3.451000000000000000e+03
4.740767999999999915e+01 3.398000000000000000e+03
4.757229000000000241e+01 3.350000000000000000e+03
4.773689999999999856e+01 3.435000000000000000e+03
4.790151000000000181e+01 3.479000000000000000e+03
4.806612000000000506e+01 3.313000000000000000e+03
4.823073000000000121e+01 3.340000000000000000e+03
4.839534000000000447e+01 3.400000000000000000e+03
4.855995000000000061e+01 3.188000000000000000e+03
4.872456000000000387e+01 3.294000000000000000e+03
4.888917000000000002e+01 3.300000000000000000e+03
4.905378000000000327e+01 3.205000000000000000e+03
4.921838999999999942e+01 3.137000000000000000e+03
4.938300000000000267e+01 3.143000000000000000e+03
4.954760999999999882e+01 3.221000000000000000e+03
4.971222000000000207e+01 3.271000000000000000e+03
4.987683000000000533e+01 3.128000000000000000e+03
5.004144000000000148e+01 3.106000000000000000e+03
5.020605000000000473e+01 3.312000000000000000e+03
5.037066000000000088e+01 3.178000000000000000e+03
5.053527000000000413e+01 3.074000000000000000e+03
5.069988000000000028e+01 3.123000000000000000e+03
5.086449000000000353e+01 3.019000000000000000e+03
5.102909999999999968e+01 3.016000000000000000e+03
5.119371000000000294e+01 3.133000000000000000e+03
5.135831999999999908e+01 3.056000000000000000e+03
5.152293000000000234e+01 3.002000000000000000e+03
5.168753999999999849e+01 3.016000000000000000e+03
5.185215000000000174e+01 3.018000000000000000e+03
5.201676000000000499e+01 2.999000000000000000e+03
5.218137000000000114e+01 3.032000000000000000e+03
5.234598000000000440e+01 2.906000000000000000e+03
5.251059000000000054e+01 3.039000000000000000e+03
5.267520000000000380e+01 2.902000000000000000e+03
5.283980999999999995e+01 2.881000000000000000e+03
5.300442000000000320e+01 2.905000000000000000e+03
5.316902999999999935e+01 2.919000000000000000e+03
5.333364000000000260e+01 2.785000000000000000e+03
5.349824999999999875e+01 2.914000000000000000e+03
5.366286000000000200e+01 2.911000000000000000e+03
5.382747000000000526e+01 2.854000000000000000e+03
5.399208000000000141e+01 2.906000000000000000e+03
5.415669000000000466e+01 2.881000000000000000e+03
5.432130000000000081e+01 2.812000000000000000e+03
5.448591000000000406e+01 2.728000000000000000e+03
5.465052000000000021e+01 2.792000000000000000e+03
5.481513000000000346e+01 2.695000000000000000e+03
5.497973999999999961e+01 2.731000000000000000e+03
5.514435000000000286e+01 2.813000000000000000e+03
5.530895999999999901e+01 2.677000000000000000e+03
5.547357000000000227e+01 2.802000000000000000e+03
5.563818000000000552e+01 2.604000000000000000e+03
5.580279000000000167e+01 2.730000000000000000e+03
5.596740000000000492e+01 2.745000000000000000e+03
5.613201000000000107e+01 2.672000000000000000e+03
5.629662000000000432e+01 2.823000000000000000e+03
5.646123000000000047e+01 2.667000000000000000e+03
5.662584000000000373e+01 2.628000000000000000e+03
5.679044999999999987e+01 2.623000000000000000e+03
5.695506000000000313e+01 2.598000000000000000e+03
5.711966999999999928e+01 2.655000000000000000e+03
5.728428000000000253e+01 2.538000000000000000e+03
5.744888999999999868e+01 2.616000000000000000e+03
5.761350000000000193e+01 2.589000000000000000e+03
5.777811000000000519e+01 2.529000000000000000e+03
5.794272000000000133e+01 2.549000000000000000e+03
5.810733000000000459e+01 2.519000000000000000e+03
5.827194000000000074e+01 2.494000000000000000e+03
5.843655000000000399e+01 2.476000000000000000e+03
5.860116000000000014e+01 2.617000000000000000e+03
5.876577000000000339e+01 2.547000000000000000e+03
5.893037999999999954e+01 2.655000000000000000e+03
5.909499000000000279e+01 2.528000000000000000e+03
5.925959999999999894e+01 2.531000000000000000e+03
5.942421000000000220e+01 2.591000000000000000e+03
5.958882000000000545e+01 2.560000000000000000e+03
5.975343000000000160e+01 2.474000000000000000e+03
5.991804000000000485e+01 2.537000000000000000e+03
6.008265000000000100e+01 2.507000000000000000e+03
6.024726000000000425e+01 2.452000000000000000e+03
6.041187000000000040e+01 2.445000000000000000e+03
6.057648000000000366e+01 2.520000000000000000e+03
6.074108999999999980e+01 2.446000000000000000e+03
6.090570000000000306e+01 2.444000000000000000e+03
6.107030999999999921e+01 2.510000000000000000e+03
6.123492000000000246e+01 2.325000000000000000e+03
6.139953000000000571e+01 2.405000000000000000e+03
6.156414000000000186e+01 2.339000000000000000e+03
6.172875000000000512e+01 2.304000000000000000e+03
6.189336000000000126e+01 2.356000000000000000e+03
6.205797000000000452e+01 2.379000000000000000e+03
6.222258000000000067e+01 2.370000000000000000e+03
6.238719000000000392e+01 2.385000000000000000e+03
6.255180000000000007e+01 2.392000000000000000e+03
6.271641000000000332e+01 2.262000000000000000e+03
6.288101999999999947e+01 2.311000000000000000e+03
6.304563000000000272e+01 2.303000000000000000e+03
6.321023999999999887e+01 2.269000000000000000e+03
6.337485000000000213e+01 2.239000000000000000e+03
6.353946000000000538e+01 2.228000000000000000e+03
6.370407000000000153e+01 2.309000000000000000e+03
6.386868000000000478e+01 2.270000000000000000e+03
6.403329000000000804e+01 2.326000000000000000e+03
6.419790000000000418e+01 2.234000000000000000e+03
6.436251000000000033e+01 2.224000000000000000e+03
6.452711999999999648e+01 2.265000000000000000e+03
6.469173000000000684e+01 2.255000000000000000e+03
6.485634000000000299e+01 2.143000000000000000e+03
6.502094999999999914e+01 2.262000000000000000e+03
6.518556000000000950e+01 2.146000000000000000e+03
6.535017000000000564e+01 2.134000000000000000e+03
6.551478000000000179e+01 2.210000000000000000e+03
6.567938999999999794e+01 2.171000000000000000e+03
6.584400000000000830e+01 2.126000000000000000e+03
6.600861000000000445e+01 2.156000000000000000e+03
6.617322000000000060e+01 2.041000000000000000e+03
6.633782999999999674e+01 2.154000000000000000e+03
6.650244000000000710e+01 2.020000000000000000e+03
6.666705000000000325e+01 2.119000000000000000e+03
6.683165999999999940e+01 2.114000000000000000e+03
6.699626999999999555e+01 2.072000000000000000e+03
6.716088000000000591e+01 2.045000000000000000e+03
6.732549000000000206e+01 1.978000000000000000e+03
6.749009999999999820e+01 2.011000000000000000e+03
6.765471000000000856e+01 2.054000000000000000e+03
6.781932000000000471e+01 1.961000000000000000e+03
6.798393000000000086e+01 2.068000000000000000e+03
6.814853999999999701e+01 2.063000000000000000e+03
6.831315000000000737e+01 2.002000000000000000e+03
6.847776000000000352e+01 2.059000000000000000e+03
6.864236999999999966e+01 1.891000000000000000e+03
6.880697999999999581e+01 1.951000000000000000e+03
6.897159000000000617e+01 2.019000000000000000e+03
6.913620000000000232e+01 1.988000000000000000e+03
6.930080999999999847e+01 1.915000000000000000e+03
6.946542000000000883e+01 1.875000000000000000e+03
6.963003000000000497e+01 1.919000000000000000e+03
6.979464000000000112e+01 1.922000000000000000e+03
6.995924999999999727e+01 1.909000000000000000e+03
7.012386000000000763e+01 1.885000000000000000e+03
7.028847000000000378e+01 1.883000000000000000e+03
7.045307999999999993e+01 1.984000000000000000e+03
7.061768999999999608e+01 1.790000000000000000e+03
7.078230000000000643e+01 1.878000000000000000e+03
7.094691000000000258e+01 1.907000000000000000e+03
